Wavelength;Intensity
174.456;0.02314517170077934
174.799;0.023440097569230028
175.142;0.02371519915391279
175.485;0.023970936000882685
175.828;0.024207767656194746
176.17;0.024426153665904022
176.513;0.02462655357606557
176.856;0.024809426932734427
177.199;0.024975233281965645
177.542;0.025124432169814272
177.884;0.025257483142335353
178.227;0.025374845745583935
178.57;0.025476979525615066
178.913;0.025564344028483794
179.255;0.02563739880024517
179.598;0.025696603386954234
179.941;0.025742417334666038
180.284;0.025775300189435628
180.626;0.02579571149731805
180.969;0.025804110804368355
181.312;0.025800957656641588
181.654;0.02578671160019279
181.997;0.02576183218107702
182.34;0.02572677894534932
182.682;0.025682011439064734
183.025;0.02562798920827831
183.368;0.025565171799045102
183.71;0.02549401875742015
184.053;0.025414989629458505
184.395;0.025328543961215217
184.738;0.025235141298745326
185.081;0.025135241188103886
185.423;0.02502930317534594
185.766;0.024917786806526527
186.108;0.024801151627700718
186.451;0.024679857184923538
186.793;0.024554363024250046
187.136;0.02442512869173528
187.478;0.024292613733434297
187.821;0.024157277695402143
188.163;0.02401958012369386
188.506;0.023879980564364498
188.848;0.0237389385634691
189.191;0.02359691366706272
189.533;0.023454365421200406
189.876;0.023311753371937194
190.218;0.02316953706532815
190.561;0.023028176047428302
190.903;0.02288812986429271
191.245;0.02274985806197642
191.588;0.022288601107575787
191.93;0.021777253238540385
192.272;0.022485703327465155
192.615;0.022730443629305253
192.957;0.02223759291633914
193.3;0.022259650118036673
193.642;0.022497807491723473
193.984;0.022599211607392505
194.327;0.0224032074596902
194.669;0.02235163538395771
195.011;0.02261919500049677
195.353;0.02280895382477419
195.696;0.02228235459360134
196.038;0.021930041108841527
196.38;0.021937422490856208
196.722;0.022510031185169532
197.065;0.021899510421722234
197.407;0.021419253800911576
197.749;0.021302322379016112
198.091;0.022993170299449563
198.434;0.022504660134262083
198.776;0.02210491586690327
199.118;0.022289911423117717
199.46;0.022649131524267365
199.802;0.022703412117000037
200.144;0.022417986837465098
200.487;0.022782411630582197
200.829;0.022969456139982473
201.171;0.023226497664718435
201.513;0.02289100996581105
201.855;0.022945801420217165
202.197;0.023171660229944872
202.539;0.02317063151248008
202.881;0.022645550109909825
203.223;0.022944150088219123
203.565;0.0230625654385159
203.907;0.02274427312745124
204.249;0.02198138236112693
204.591;0.022589518106069746
204.933;0.022863607424090545
205.275;0.022590422898964818
205.617;0.022000242575572794
205.959;0.022279861113643242
206.301;0.02265465742285047
206.643;0.02264614104253412
206.985;0.022435204780658805
207.327;0.022656726393493455
207.669;0.022938406762276296
208.011;0.022881291287555526
208.353;0.02250459825205795
208.695;0.0225331454665378
209.037;0.023004303482285438
209.379;0.023212259065703726
209.721;0.02278154475138393
210.062;0.02285879834319637
210.404;0.02289513573306245
210.746;0.022346081009260027
211.088;0.0215816913909011
211.43;0.021600140454443598
211.772;0.021889561950648204
212.113;0.02126838623534521
212.455;0.020656064830540194
212.797;0.020583530716979936
213.139;0.02168858061496302
213.48;0.02172840465730952
213.822;0.02131127995934758
214.164;0.021486482447758793
214.506;0.021845395979671552
214.847;0.02149158411165802
215.189;0.021099264546782646
215.531;0.02109219822857436
215.872;0.021096483540128046
216.214;0.020804771617996272
216.556;0.020141917126339382
216.898;0.020735616038872088
217.239;0.021008305433418358
217.581;0.020941404623855246
217.922;0.02056440452557016
218.264;0.02081453108868653
218.606;0.021270710404759127
218.947;0.020830047674515993
219.289;0.02055564005034107
219.63;0.020741287963745417
219.972;0.021165786321502723
220.314;0.02089669225844715
220.655;0.020416470507864732
220.997;0.02051519108851506
221.338;0.021194411179180687
221.68;0.020690908552697146
222.021;0.020112697186027616
222.363;0.020504063968407715
222.704;0.020795516618152377
223.046;0.02038567498190587
223.387;0.020028633262999862
223.729;0.020165460642427153
224.07;0.02036737278554133
224.412;0.020143986441994843
224.753;0.019749286377925723
225.094;0.019958168075112328
225.436;0.020603960697071537
225.777;0.02061656906251499
226.119;0.020629621020054705
226.46;0.020643397944279274
226.801;0.02065674836799218
227.143;0.02067352431405087
227.484;0.0206902183595665
227.825;0.02070661580681804
228.167;0.02072440547672775
228.508;0.020745101911622335
228.849;0.02076704821393306
229.191;0.02078791217090217
229.532;0.02080866428010097
229.873;0.020832616636294092
230.215;0.020857747447451003
230.556;0.020882853641438652
230.897;0.020911126589917624
231.238;0.02093830191855743
231.58;0.020964606441878846
231.921;0.02098838696967419
232.262;0.02101464965133495
232.603;0.02103425752304806
232.944;0.02105273057056894
233.286;0.021071307543799715
233.627;0.02109198390929289
233.968;0.021112027002862306
234.309;0.02113299282893348
234.65;0.02115554884845115
234.991;0.021174842882899662
235.332;0.021195530056085016
235.673;0.021212452437494946
236.015;0.021230506414857686
236.356;0.021246548869521535
236.697;0.02126203611301783
237.038;0.021271717862753916
237.379;0.021280382772785118
237.72;0.02128714933960064
238.061;0.021294601342639188
238.402;0.021298945868642543
238.743;0.021303790287904557
239.084;0.021304647249276696
239.425;0.021303269770931915
239.766;0.021300373998730734
240.107;0.021299473414522943
240.448;0.021298786248187398
240.789;0.021297600241185863
241.13;0.021294702102154194
241.471;0.021291222241786263
241.812;0.021287616167694017
242.153;0.021285389377811128
242.494;0.021277754876479194
242.834;0.02126985868358461
243.175;0.021263522264521138
243.516;0.021255883421194367
243.857;0.02124464802929409
244.198;0.02122742614002018
244.539;0.02121422979796546
244.88;0.021199864197164728
245.22;0.021186832633197063
245.561;0.021174887052913555
245.902;0.021163792141773018
246.243;0.021152105789948448
246.584;0.021140116630837622
246.924;0.021137659346167303
247.265;0.02113522808084056
247.606;0.021129994952518334
247.947;0.021120205140449714
248.287;0.021110120889731576
248.628;0.02110000736802347
248.969;0.021084216244046897
249.31;0.02106757333027809
249.65;0.021048585387628212
249.991;0.021029188765515395
250.332;0.021010920690676376
250.672;0.020997043824818377
251.013;0.020985271770339525
251.354;0.02097304879826133
251.694;0.020961496753685624
252.035;0.0209479579835415
252.375;0.02093529990792447
252.716;0.02092385288910657
253.057;0.020908494762521577
253.397;0.02089508159455431
253.738;0.020882870248691163
254.078;0.020873042475710982
254.419;0.0208633837418502
254.759;0.02085409874187286
255.1;0.020843770011658512
255.44;0.02083412377047184
255.781;0.02082306848189799
256.121;0.02081160218310314
256.462;0.020801328149390452
256.802;0.020787984956350265
257.143;0.02077835845045442
257.483;0.020770667524111528
257.824;0.020762761707100324
258.164;0.020759009111884684
258.505;0.020753499656063937
258.845;0.020748287717070938
259.185;0.0207439737500026
259.526;0.02073918009005991
259.866;0.020735799767715314
260.207;0.020733626919539134
260.547;0.020734034337590263
260.887;0.020734446291385114
261.228;0.0207364076161314
261.568;0.020742094319386502
261.908;0.020746342677971676
262.249;0.020751607157779645
262.589;0.02075807749555214
262.929;0.0207648487763892
263.269;0.020771859238809007
263.61;0.02078222616873422
263.95;0.020792009568492656
264.29;0.020801483364523646
264.63;0.020809408709208957
264.971;0.020815206771974376
265.311;0.02082211628545899
265.651;0.02082957678779653
265.991;0.020838244954684594
266.331;0.02084689872724171
266.672;0.020855986170541893
267.012;0.020865493091057234
267.352;0.020877621817414288
267.692;0.020891367503179954
268.032;0.020903357715364414
268.372;0.02091002674841936
268.713;0.020916790120983686
269.053;0.020924135460817898
269.393;0.020926260583524012
269.733;0.02092261139970599
270.073;0.020914038735622163
270.413;0.020908107919927563
270.753;0.020902945531908617
271.093;0.020900639749399156
271.433;0.020897012163730907
271.773;0.020892988283377302
272.113;0.020884606745383755
272.453;0.020875298034696513
272.793;0.020869816917273923
273.133;0.02086426810301663
273.473;0.020858710021599162
273.813;0.020853936538553636
274.153;0.02084991267078529
274.493;0.020846716854764406
274.833;0.020842610373742517
275.173;0.02083794820419496
275.513;0.02083781968055442
275.852;0.020840288482741616
276.192;0.020839661743128905
276.532;0.020840178311456188
276.872;0.020837726000528696
277.212;0.020836184076604237
277.552;0.02083504672806538
277.892;0.02083051529580139
278.231;0.020827896574951578
278.571;0.020816407300762677
278.911;0.02080519460433461
279.251;0.02079073610259185
279.591;0.02077514888211117
279.93;0.020755898239554777
280.27;0.02073149341969922
280.61;0.020704359333838025
280.95;0.020678509077157826
281.289;0.02066125393971132
281.629;0.02063904341676182
281.969;0.02061384869997956
282.308;0.020585882417652
282.648;0.020556731129853092
282.988;0.020529463957673574
283.328;0.020498844100700946
283.667;0.02046778616782363
284.007;0.020437461436800017
284.346;0.02040366608483296
284.686;0.020367669817636175
285.026;0.020336990386051
285.365;0.020305279085716072
285.705;0.0202707844850028
286.044;0.020233704873900176
286.384;0.020195012865265108
286.724;0.02015487114891327
287.063;0.02011511835789572
287.403;0.020073445559780786
287.742;0.020032679523071934
288.082;0.01998847788426618
288.421;0.019940057749051797
288.761;0.01988611122146321
289.1;0.019831497963596414
289.44;0.019774181171690757
289.779;0.01971568395005775
290.119;0.019656208924909626
290.458;0.019595711910761447
290.797;0.019539640209003457
291.137;0.01947822790617406
291.476;0.019416439905359052
291.816;0.019351341619090905
292.155;0.01928514803580576
292.494;0.0192227723112871
292.834;0.01915999612467865
293.173;0.01910086761863103
293.512;0.01904457855524525
293.852;0.018984696605275957
294.191;0.018927469529199468
294.53;0.0188709629275113
294.87;0.018818404671610875
295.209;0.01876459584271814
295.548;0.018707125073523775
295.888;0.018653115918795895
296.227;0.01859812293630159
296.566;0.01854012421881916
296.905;0.018479886560425422
297.245;0.01842043169614229
297.584;0.018359396853796017
297.923;0.018299249913803717
298.262;0.018236525142391005
298.601;0.018172180962814775
298.941;0.01810790701379871
299.28;0.018041164163436423
299.619;0.01797394165739444
299.958;0.017909944702094074
300.297;0.01784640569859141
300.636;0.01778473668275184
300.975;0.017723152423988687
301.315;0.017663147429696425
301.654;0.01760159020679711
301.993;0.01754042286010059
302.332;0.01748026946186591
302.671;0.01741733600511966
303.01;0.017355058021176675
303.349;0.01729449187643609
303.688;0.017235950103303505
304.027;0.017179290009780985
304.366;0.017121950006407455
304.705;0.01706851108972767
305.044;0.017013992595421367
305.383;0.01696060295003428
305.722;0.016907673345197247
306.061;0.0168564260135004
306.4;0.01680645184790262
306.739;0.016757120087119267
307.078;0.016711085375863157
307.417;0.016666358991918387
307.755;0.01662265513709775
308.094;0.016579407906289822
308.433;0.01653820121786636
308.772;0.016496578941393707
309.111;0.016456061500523006
309.45;0.01641566699824306
309.789;0.016371642839739044
310.127;0.016328728904210006
310.466;0.0162852068230283
310.805;0.016243456088085906
311.144;0.016203330962713917
311.483;0.016162627276909928
311.821;0.016122142863047927
312.16;0.0160830886447798
312.499;0.016053388295997402
312.838;0.016022057924226403
313.176;0.015990574701908185
313.515;0.01595891818240418
313.854;0.015928024258149525
314.192;0.015897877830840325
314.531;0.015868293666692783
314.87;0.01584008232899317
315.208;0.015806803565233302
315.547;0.015775750231827614
315.886;0.015744444056862164
316.224;0.01571398916972145
316.563;0.015679438783200158
316.902;0.015643366175179262
317.24;0.015612661093231098
317.579;0.015583841688115845
317.917;0.015557032160797984
318.256;0.015534893529262154
318.594;0.015511522624263103
318.933;0.015479676944053547
319.272;0.015447271651282372
319.61;0.015416219037320683
319.949;0.015386044331733992
320.287;0.015356311428972313
320.626;0.015327143655524959
320.964;0.015295530927434953
321.303;0.015262990459833594
321.641;0.015228080442855925
321.979;0.01519423141355278
322.318;0.015160275620443375
322.656;0.015127250768791976
322.995;0.015093905866364807
323.333;0.015062663535461145
323.671;0.01503217150553092
324.01;0.015002493890697964
324.348;0.014974490864942461
324.687;0.014947761541963195
325.025;0.014926077870620608
325.363;0.014905507305880743
325.702;0.014888760767887154
326.04;0.014874380854359262
326.378;0.014857605981334265
326.717;0.014844562156838423
327.055;0.014830695044717209
327.393;0.014816616758827903
327.731;0.014804447509056063
328.07;0.014790915817679776
328.408;0.014776378239382009
328.746;0.014758937823021121
329.084;0.014741900229648589
329.422;0.01472255484341161
329.761;0.014699981862650927
330.099;0.014680209146637873
330.437;0.014661718761358274
330.775;0.014641755390280333
331.113;0.014620340021769916
331.451;0.014598667326216902
331.79;0.014573925357187281
332.128;0.014550347889114286
332.466;0.014527904533404797
332.804;0.01450780899641589
333.142;0.014487337245606037
333.48;0.014465465429436875
333.818;0.014442557316189838
334.156;0.014421992515178384
334.494;0.014398695203328572
334.832;0.014373039970161199
335.17;0.014343855459280045
335.508;0.014312664472709891
335.846;0.014280060496600236
336.184;0.014250031213291442
336.522;0.01422020288532127
336.86;0.014188956425730898
337.198;0.014157519445906257
337.536;0.014128398068540748
337.874;0.014102887844101233
338.212;0.01408022638287089
338.55;0.014053488324518804
338.888;0.014025205602823958
339.226;0.013993972703410296
339.564;0.013963306243460568
339.901;0.013933615989098737
340.239;0.013906723417021259
340.577;0.013879171823898813
340.915;0.013851102765288387
341.253;0.01382531430095196
341.591;0.013798790272500533
341.928;0.013772028203075683
342.266;0.01374155658515452
342.604;0.013712617915462643
342.942;0.01368268068619605
343.279;0.01365184527835002
343.617;0.013619980535399525
343.955;0.013587185476807108
344.293;0.01355334090340743
344.63;0.013520879271237119
344.968;0.013489650897867704
345.306;0.013456484267731885
345.643;0.01342400744186622
345.981;0.013392193464808244
346.319;0.013358746549069565
346.656;0.013330013969903179
346.994;0.013300217698193317
347.332;0.013271980307482554
347.669;0.013244263427972842
348.007;0.013218206906497379
348.344;0.013193085792804302
348.682;0.013169476923786288
349.02;0.013143125235880569
349.357;0.01311866530917974
349.695;0.013097508639344939
350.032;0.013078735744077905
350.37;0.013065940568647046
350.707;0.013056948945668384
351.045;0.013045778978843148
351.382;0.01303471415481062
351.72;0.013025592832150976
352.057;0.01301545124699656
352.395;0.013009875936678865
352.732;0.013009139043496284
353.07;0.013007938551181191
353.407;0.013005868447624329
353.744;0.012997314214132645
354.082;0.012988898350684279
354.419;0.01298119742114391
354.757;0.012975983321654566
355.094;0.01297242491667929
355.431;0.012968609117406424
355.769;0.012965999477983995
356.106;0.012966911806563982
356.443;0.01296938363025566
356.781;0.012975961799176676
357.118;0.01298235606634742
357.455;0.012992822785840855
357.793;0.0130052968090853
358.13;0.013018547324271225
358.467;0.013031656545705641
358.804;0.01304403957495551
359.142;0.013059837677819448
359.479;0.013077754907996113
359.816;0.0130994327987765
360.153;0.01312123319856543
360.49;0.013139105344573397
360.828;0.013156222523763084
361.165;0.013170703337408185
361.502;0.013183171145057272
361.839;0.013195237861032933
362.176;0.013207910233986226
362.513;0.013219952661211797
362.85;0.01322594435589697
363.187;0.013231077239337108
363.525;0.013238521270695648
363.862;0.013244006294518794
364.199;0.01324814029028569
364.536;0.013254430846818212
364.873;0.01325973097289201
365.21;0.013266402800676275
365.547;0.01327493606768601
365.884;0.013282452011300055
366.221;0.013293408122253932
366.558;0.013304832820672427
366.895;0.013319538513193226
367.232;0.013336910992797857
367.569;0.01335432508135606
367.906;0.013371790217492152
368.243;0.013390268201000083
368.58;0.013409713659131944
368.916;0.013427039842294718
369.253;0.013443487434432346
369.59;0.013462011062193122
369.927;0.013479019426820468
370.264;0.01349742623427052
370.601;0.013517182812453243
370.938;0.013537023025059101
371.275;0.013554442992456757
371.611;0.013566507916034885
371.948;0.013575709306438963
372.285;0.013585936274085076
372.622;0.013595445750209791
372.958;0.013609932104335223
373.295;0.013626278367895674
373.632;0.013644714151343622
373.969;0.01366324469209951
374.305;0.013681248878967453
374.642;0.013698425518139615
374.979;0.013712262813295024
375.316;0.0137263098052541
375.652;0.0137396358933228
375.989;0.013755349425644709
376.326;0.013769982757249494
376.662;0.013785316822340528
376.999;0.013797868560286598
377.336;0.013812180245272587
377.672;0.013830133176064163
378.009;0.013849010843780589
378.345;0.013868168265633165
378.682;0.013887322856122894
379.019;0.013906963812961345
379.355;0.013927123374213726
379.692;0.013948736947181456
380.028;0.013970130089160872
380.365;0.013988033446693672
380.701;0.01400738334133951
381.038;0.014028906239593495
381.374;0.014051811580075301
381.711;0.014080035407803724
382.047;0.014111125507002248
382.384;0.014143200867644734
382.72;0.014177541272470544
383.056;0.01420950599096253
383.393;0.014497098185004146
383.729;0.01477881656455862
384.066;0.015052035341952274
384.402;0.015313656503784431
384.738;0.015566439044769393
385.075;0.015813909272499593
385.411;0.016051901973430753
385.748;0.01627715464329162
386.084;0.016491444766802088
386.42;0.01669843142829155
386.757;0.016897400119826992
387.093;0.01708516771213116
387.429;0.017270750231482723
387.765;0.017451345511878037
388.102;0.017623807579494784
388.438;0.017784946969219027
388.774;0.017939806882329316
389.11;0.01809076927181732
389.447;0.01823411879259236
389.783;0.018365577190946576
390.119;0.01848910862632741
390.455;0.01860660985500537
390.791;0.018719289366466732
391.128;0.01881852799120635
391.464;0.018909239921488036
391.8;0.018995173599231325
392.136;0.01907501457219149
392.472;0.019143974741908317
392.808;0.01920173358145035
393.144;0.019252389686252265
393.48;0.019291088622712216
393.816;0.019318785068328938
394.152;0.019339131642616268
394.489;0.019353614553751255
394.825;0.01936138638399684
395.161;0.01936057777551406
395.497;0.019350625585455642
395.833;0.019334375636889573
396.169;0.01931114431516893
396.505;0.019281001939030862
396.841;0.019246508319967867
397.176;0.019206842100949483
397.512;0.019160880657629872
397.848;0.019106632866172826
398.184;0.019044166120004084
398.52;0.01898020324069784
398.856;0.018910452159938865
399.192;0.018830240574640528
399.528;0.018745371469446985
399.864;0.018654348037949395
400.2;0.01855793814156688
400.535;0.01845038091266858
400.871;0.01833597759927436
401.207;0.01821817409525781
401.543;0.018094431476489575
401.879;0.01796076278544407
402.214;0.017821711232104416
402.55;0.01768379568677303
402.886;0.017544616099976682
403.222;0.017398177004017364
403.557;0.017247318102320303
403.893;0.017094164395426412
404.229;0.01693821734671996
404.565;0.016776577349503517
404.9;0.01661313057405199
405.236;0.016452582252584277
405.572;0.016292694894459923
405.907;0.01612810374284436
406.243;0.015962861111159365
406.579;0.015797470326996674
406.914;0.015631255520293562
407.25;0.01546036647357619
407.585;0.015287465371250331
407.921;0.015117875615467333
408.257;0.014949913120168296
408.592;0.014781275580303394
408.928;0.01461428768032027
409.263;0.014453764507889336
409.599;0.014296927956977845
409.934;0.014141913371904562
410.27;0.013992152430730436
410.605;0.013853285479827403
410.941;0.013723304322772774
411.276;0.013597335288873809
