Wavelength;Intensity
174.456;0.023596890847498515
174.799;0.02391187353365957
175.142;0.024205636022602846
175.485;0.0244786608887067
175.828;0.024731430706349526
176.17;0.024964428049909695
176.513;0.025178135493765578
176.856;0.02537303561229556
177.199;0.02554961097987801
177.542;0.02570834417089131
177.884;0.025849717759713835
178.227;0.025974214320723953
178.57;0.026082316428300056
178.913;0.026174506656820515
179.255;0.0262512675806637
179.598;0.02631308177420799
179.941;0.02636043181183177
180.284;0.026393800267913402
180.626;0.026413669716831272
180.969;0.02642052273296376
181.312;0.02641484189068924
181.654;0.026397109764386074
181.997;0.02636780892843266
182.34;0.026327421957207362
182.682;0.02627643142508856
183.025;0.02621531990645463
183.368;0.026144569975683953
183.71;0.026064664207154892
184.053;0.02597608517524584
184.395;0.025879315454335163
184.738;0.025774837618801238
185.081;0.02566313424302245
185.423;0.025544687901377167
185.766;0.025419981168243767
186.108;0.025289496618000628
186.451;0.02515371682502613
186.793;0.025013124363698642
187.136;0.024868201808396544
187.478;0.024719431733498214
187.821;0.024567296713382026
188.163;0.024412279322426355
188.506;0.02425486213500959
188.848;0.024095527725510088
189.191;0.023934758668306237
189.533;0.023773037537776414
189.876;0.023610846908298993
190.218;0.02344866935425235
190.561;0.023286987450014864
190.903;0.02312628376996491
191.245;0.02296704088848086
191.588;0.02304496405264612
191.93;0.022603974641033805
192.272;0.023076341524957272
192.615;0.022908969326029042
192.957;0.02284179932630536
193.3;0.023390711507458
193.642;0.023404541478372436
193.984;0.02310725516763738
194.327;0.023029591922066734
194.669;0.023349726027429622
195.011;0.022999918188483615
195.353;0.02232416083719365
195.696;0.022300305843680566
196.038;0.022023272820818014
196.38;0.02129267494466594
196.722;0.021453795707974153
197.065;0.020837292876119365
197.407;0.020883488352968566
197.749;0.019868941370092416
198.091;0.0215206829253995
198.434;0.021185787781019125
198.776;0.02138796454948826
199.118;0.02102254330977262
199.46;0.020975725378558185
199.802;0.021134000289901866
200.144;0.020833827296862402
200.487;0.02133741674021193
200.829;0.020860210514111542
201.171;0.021569603960002213
201.513;0.021289997186438342
201.855;0.02134838669353369
202.197;0.02121828979209767
202.539;0.02182054995602188
202.881;0.021666645254582523
203.223;0.021648744824515054
203.565;0.021320690542238313
203.907;0.02154665791500177
204.249;0.021225165954643573
204.591;0.02199515541252799
204.933;0.02173565686171436
205.275;0.022202692621333748
205.617;0.02162151424514722
205.959;0.021474434497886868
206.301;0.02140439637510418
206.643;0.021725745921660915
206.985;0.022079537407942707
207.327;0.02170251482180149
207.669;0.02136064594627081
208.011;0.021915403304949194
208.353;0.021482963948314098
208.695;0.02088005254425629
209.037;0.020683683607566023
209.379;0.021152417879023916
209.721;0.021133651300336263
210.062;0.01996617833214569
210.404;0.01967757820277151
210.746;0.019139564919543932
211.088;0.018141986768368024
211.43;0.017504135122897814
211.772;0.01753525572010216
212.113;0.01719926247441009
212.455;0.01665972748456349
212.797;0.01638184808435852
213.139;0.017288626831819368
213.48;0.018028256924569053
213.822;0.018173294245810784
214.164;0.01797297923478768
214.506;0.018448171441877707
214.847;0.018313576764132214
215.189;0.018636918588868987
215.531;0.018154416084394658
215.872;0.01803023890047408
216.214;0.01828119095665551
216.556;0.017737080090164704
216.898;0.017728964018521816
217.239;0.01733757430387779
217.581;0.0179059916459331
217.922;0.017582597249293033
218.264;0.017457126826851948
218.606;0.01795673550144252
218.947;0.018056250781311102
219.289;0.01793855865224657
219.63;0.017732335210759294
219.972;0.017670588904310662
220.314;0.01758944038395732
220.655;0.017881211189966596
220.997;0.01768939108644867
221.338;0.0179671655701031
221.68;0.01807981420529128
222.021;0.01720930757129459
222.363;0.01740247500027678
222.704;0.016864812524663344
223.046;0.01704445624815627
223.387;0.016939014660346325
223.729;0.01657822618704345
224.07;0.01648458653701348
224.412;0.01661276191265807
224.753;0.016746046307678092
225.094;0.01687956023132494
225.436;0.016974465924899502
225.777;0.0170219659273205
226.119;0.01680172199858335
226.46;0.016686552487605248
226.801;0.016609399431903128
227.143;0.015987847652026408
227.484;0.015827576599149573
227.825;0.015362178977007113
228.167;0.015204113141244298
228.508;0.015119340113891728
228.849;0.014929024294027751
229.191;0.01507195502728818
229.532;0.015460725085505526
229.873;0.015278685628563105
230.215;0.015334933777499027
230.556;0.01613182739928824
230.897;0.0159996423933643
231.238;0.016467337650087687
231.58;0.016207832963360275
231.921;0.016866881615393726
232.262;0.016865019024675458
232.603;0.017154385158496644
232.944;0.017018945845705246
233.286;0.016835398317507775
233.627;0.01685196255765824
233.968;0.017531266845876844
234.309;0.01772448730127448
234.65;0.017357470420966286
234.991;0.018155298595451584
235.332;0.018651508579820668
235.673;0.01940884131410825
236.015;0.01931697585218682
236.356;0.019308325122772276
236.697;0.01900898237189452
237.038;0.019429166187641577
237.379;0.019790824066901566
237.72;0.02004488165297914
238.061;0.020164472127716347
238.402;0.019869329750709475
238.743;0.01911243039374007
239.084;0.01957998520621457
239.425;0.019222647919284467
239.766;0.018939554583153523
240.107;0.018477709958101465
240.448;0.018458480307303002
240.789;0.018532647824311906
241.13;0.01769970548177157
241.471;0.01713104596050174
241.812;0.017487556944375277
242.153;0.017105497530535644
242.494;0.01763753837284042
242.834;0.017722111339102748
243.175;0.017583056761058813
243.516;0.01797531792696455
243.857;0.01770818796594513
244.198;0.018908731236883705
244.539;0.018770647572506446
244.88;0.019180806895918993
245.22;0.01950167791695243
245.561;0.019839865168459245
245.902;0.02031503358941435
246.243;0.020344602482198954
246.584;0.020439720811699418
246.924;0.017182591802668675
247.265;0.017761706163510263
247.606;0.017986268790776753
247.947;0.018201738751332033
248.287;0.018370326921718295
248.628;0.018318195061908786
248.969;0.018972616325923015
249.31;0.018683224890926466
249.65;0.019112741961806776
249.991;0.018861369936415084
250.332;0.01904360013694903
250.672;0.01800915014355037
251.013;0.01841704410274339
251.354;0.01934997108468095
251.694;0.019573238655378404
252.035;0.02034719562541791
252.375;0.02071257565603357
252.716;0.020805921160961898
253.057;0.021443166638751635
253.397;0.020923170898217634
253.738;0.0212826846922454
254.078;0.02201672428576749
254.419;0.02292128190818968
254.759;0.022979879127329492
255.1;0.02311481241661358
255.44;0.023655087124955537
255.781;0.02343431596214489
256.121;0.023984945214381437
256.462;0.02395859457050179
256.802;0.02440767225276492
257.143;0.024312540287900475
257.483;0.02418663073098755
257.824;0.02495467517995371
258.164;0.024674995684448656
258.505;0.02526694584666724
258.845;0.024718314554012386
259.185;0.024363875918206185
259.526;0.0252009197024766
259.866;0.024625573019955892
260.207;0.024955815096381583
260.547;0.02470902167470689
260.887;0.024948126341895093
261.228;0.025896047982086157
261.568;0.025867783993633476
261.908;0.02644531097085294
262.249;0.026881696401820893
262.589;0.027434281116754757
262.929;0.02776404110731209
263.269;0.027863625397272763
263.61;0.0274945278361748
263.95;0.027618076581320414
264.29;0.02799993017691613
264.63;0.027619702522721782
264.971;0.027811380136686235
265.311;0.027773502459114637
265.651;0.02702728731883981
265.991;0.026465110428361305
266.331;0.026178770057557033
266.672;0.026177888076764255
267.012;0.02561782648574961
267.352;0.025782311926621403
267.692;0.025922041833941926
268.032;0.025714976105721446
268.372;0.026161864857555298
268.713;0.026267343639608077
269.053;0.025950493535905277
269.393;0.025915497162244543
269.733;0.025660060813613564
270.073;0.025589709077459572
270.413;0.02511403304220468
270.753;0.024781669757657422
271.093;0.023846749512763544
271.433;0.023468545573838377
271.773;0.02301831100669445
272.113;0.022818258097667632
272.453;0.022222958029529765
272.793;0.021935394945337514
273.133;0.021573964246391658
273.473;0.02074797912106083
273.813;0.020873164791651
274.153;0.02074999162503074
274.493;0.0206381434614596
274.833;0.02046830992783077
275.173;0.020274021520426233
275.513;0.02051450472291179
275.852;0.020113779632077885
276.192;0.02009302994120488
276.532;0.019131294692536154
276.872;0.018658669191209395
277.212;0.018474707905467458
277.552;0.017848692058931075
277.892;0.017354172405182104
278.231;0.01585871052870982
278.571;0.01575373148274653
278.911;0.015151577598909255
279.251;0.01492218676501309
279.591;0.014166578222499488
279.93;0.013686871800911195
280.27;0.013369120323897981
280.61;0.012963620431609955
280.95;0.015150317236766324
281.289;0.014951900192655772
281.629;0.015077760359250318
281.969;0.014664671023376732
282.308;0.01468229844315673
282.648;0.014533883263499577
282.988;0.01351004643139879
283.328;0.01333496972156348
283.667;0.01300478279260985
284.007;0.012431108260223969
284.346;0.012688386746527242
284.686;0.014177086467246823
285.026;0.014194731764504026
285.365;0.014117201690988157
285.705;0.013980881306428244
286.044;0.014027076101509255
286.384;0.013928452725948344
286.724;0.014035065591523297
287.063;0.013502138374808459
287.403;0.014299520748643971
287.742;0.014670689900289052
288.082;0.014976896466133116
288.421;0.015001029318063077
288.761;0.014874081655439915
289.1;0.014940863956314715
289.44;0.014790079783671866
289.779;0.014830377283835953
290.119;0.01486972046002621
290.458;0.0144852794026132
290.797;0.013861975932978497
291.137;0.01435697926338827
291.476;0.015093759489316261
291.816;0.01493689803495209
292.155;0.015518625234538405
292.494;0.015057005138479709
292.834;0.01543556155156349
293.173;0.015758190019508577
293.512;0.015724504383085442
293.852;0.016387076110160582
294.191;0.016699836059184587
294.53;0.01736559747665237
294.87;0.01741930270595995
295.209;0.017850223764817007
295.548;0.018413421110784596
295.888;0.017854395428671545
296.227;0.017762464895763157
296.566;0.01801203993168768
296.905;0.018190411096962126
297.245;0.01808088745993975
297.584;0.018985459247990062
297.923;0.01926350136353841
298.262;0.01895777491401013
298.601;0.0187929496495674
298.941;0.01895078641121552
299.28;0.019184885915050548
299.619;0.019868209681311387
299.958;0.019990610404562764
300.297;0.020488510113535793
300.636;0.020541576677545432
300.975;0.020922236269769523
301.315;0.02148781048693311
301.654;0.02170172677351606
301.993;0.021416211948248127
302.332;0.020774163337748012
302.671;0.021004740448309543
303.01;0.020808040399530887
303.349;0.020226450538360554
303.688;0.019239434340115616
304.027;0.01860496949179943
304.366;0.019070771705491686
304.705;0.019426003995232942
305.044;0.01994463347229717
305.383;0.01995865297477077
305.722;0.020200313515183106
306.061;0.019355717557321964
306.4;0.019188800779550316
306.739;0.02000988156746931
307.078;0.019225196520314472
307.417;0.019803489123220837
307.755;0.01973757956139212
308.094;0.019631720428436618
308.433;0.01931600349923173
308.772;0.01910760945930451
309.111;0.019165437340908354
309.45;0.019407513608417713
309.789;0.019493070972206625
310.127;0.019226446049918237
310.466;0.019175486982914172
310.805;0.018871102025944456
311.144;0.019139157070657192
311.483;0.019177702350799145
311.821;0.018793072898107284
312.16;0.01901459946008187
312.499;0.017874636444716454
312.838;0.01789946030659159
313.176;0.017525580671845394
313.515;0.01758304153490238
313.854;0.0169690327626217
314.192;0.0163304742750337
314.531;0.01573721246655323
314.87;0.016201987861586553
315.208;0.015152400644628878
315.547;0.014532082562183322
315.886;0.014052202516960488
316.224;0.013598490098732017
316.563;0.013460046233489882
316.902;0.014033752051460869
317.24;0.01374255393073832
317.579;0.013427410595844442
317.917;0.014038278386282656
318.256;0.012973298282691538
318.594;0.012588852755909218
318.933;0.012910476297529738
319.272;0.01298032731281795
319.61;0.013151182286712155
319.949;0.01279629072956609
320.287;0.013139882963598507
320.626;0.01310467918090138
320.964;0.013273575737769414
321.303;0.013410133377662397
321.641;0.013092179945758392
321.979;0.012551886147906874
322.318;0.01209033566795645
322.656;0.011603601125266013
322.995;0.011347902674638735
323.333;0.010801300324142567
323.671;0.011000925234244755
324.01;0.010667620730823484
324.348;0.010897259122327722
324.687;0.012062500814708697
325.025;0.01109442481878595
325.363;0.010896887634411566
325.702;0.009775175553719682
326.04;0.010383562010923482
326.378;0.011137019196010744
326.717;0.011767510926522215
327.055;0.012333628361435955
327.393;0.01276811938583637
327.731;0.012664963388035841
328.07;0.013011969235438082
328.408;0.013454695716668146
328.746;0.014212796879467447
329.084;0.014165628292142922
329.422;0.014053647183773079
329.761;0.015008456576569424
330.099;0.015168648317079172
330.437;0.014897970131346734
330.775;0.014819056598652083
331.113;0.01522712312095135
331.451;0.01500872420846335
331.79;0.014858226378463851
332.128;0.014444786992496354
332.466;0.01431398127938997
332.804;0.013996239195627494
333.142;0.013461594226060556
333.48;0.013340765357266797
333.818;0.013378177008398722
334.156;0.012930383625917502
334.494;0.013124237292467466
334.832;0.013189093901189624
335.17;0.013035035650401572
335.508;0.012773094930148936
335.846;0.012982096274036957
336.184;0.013036255333708663
336.522;0.012672938636669734
336.86;0.012803447629105728
337.198;0.012927558151246892
337.536;0.013362734958702962
337.874;0.013620977465238914
338.212;0.013532791733540786
338.55;0.01389798124782096
338.888;0.013284003609621356
339.226;0.012667280490886439
339.564;0.012227758698949381
339.901;0.01212000152332928
340.239;0.012403508465500639
340.577;0.011999974338184923
340.915;0.012560585964631714
341.253;0.012383304340690468
341.591;0.011788785730412104
341.928;0.011960660553779227
342.266;0.012378938372899375
342.604;0.012089730182044171
342.942;0.012235753188596864
343.279;0.01209186085916849
343.617;0.011283864490762853
343.955;0.011110529092658498
344.293;0.011011073884143404
344.63;0.010624130661689922
344.968;0.010601607388724558
345.306;0.01036131046046123
345.643;0.009880245577861444
345.981;0.009722497446079125
346.319;0.010558895671617595
346.656;0.01002803042494308
346.994;0.00935537989133362
347.332;0.009119205994126661
347.669;0.008530279170860274
348.007;0.008253867769090678
348.344;0.00809531022695271
348.682;0.007948988605929077
349.02;0.0086439044768688
349.357;0.008942439711191448
349.695;0.008949623805707008
350.032;0.00859284761400426
350.37;0.007591389595762776
350.707;0.006962290111664633
351.045;0.00731168070847316
351.382;0.007521096567425871
351.72;0.007760300924275109
352.057;0.008331749256236861
352.395;0.008223397806003745
352.732;0.007374124691044924
353.07;0.0072824849701492046
353.407;0.007525286184509618
353.744;0.007577584320007542
354.082;0.0077065667576951035
354.419;0.0076605075587335685
354.757;0.0072837020021355265
355.094;0.005920955926005723
355.431;0.006048984721487639
355.769;0.006646385090188992
356.106;0.007050887631354646
356.443;0.007570572258334069
356.781;0.007499024549255892
357.118;0.008179504811864875
357.455;0.008313898367991806
357.793;0.008630456902161712
358.13;0.009059285538665597
358.467;0.008942737643894194
358.804;0.009698168093403948
359.142;0.01055110139456439
359.479;0.012367298317190524
359.816;0.012790660612030954
360.153;0.012922443829229923
360.49;0.013407229499648964
360.828;0.013580175683864007
361.165;0.013886337253006966
361.502;0.014450545888468978
361.839;0.01477256887050178
362.176;0.01490217906519611
362.513;0.014682638645487772
362.85;0.01487316604074934
363.187;0.01460530787554192
363.525;0.014253848642515136
363.862;0.014477236204415522
364.199;0.014611440759247432
364.536;0.014445618749698507
364.873;0.014277405400317378
365.21;0.014076413772233277
365.547;0.01432367299309158
365.884;0.014985165405356504
366.221;0.015039448546840336
366.558;0.015376359907039701
366.895;0.01546118656682388
367.232;0.015182424504057929
367.569;0.015549364344559693
367.906;0.016237561238399277
368.243;0.016029272796790804
368.58;0.015447114340942935
368.916;0.014902959386775294
369.253;0.01499122367332029
369.59;0.014767397885972321
369.927;0.01507857431472729
370.264;0.014512487559382498
370.601;0.014405290191205376
370.938;0.01418977841553392
371.275;0.014237351745912272
371.611;0.01411914791193877
371.948;0.014052509539905875
372.285;0.013553192586352228
372.622;0.013436767031096442
372.958;0.013119753303026022
373.295;0.013239438089030687
373.632;0.013737304467114008
373.969;0.013536727429846615
374.305;0.013164084295356409
374.642;0.013730940994253366
374.979;0.01354727665643788
375.316;0.013930787857780182
375.652;0.013866349400219767
375.989;0.012756253967861914
376.326;0.012989101669532486
376.662;0.012500889659403908
376.999;0.012256677715136773
377.336;0.012323525390006612
377.672;0.012051168766721515
378.009;0.011333900898138299
378.345;0.011617749936441258
378.682;0.011667345315544307
379.019;0.011508970714539598
379.355;0.011647710921692006
379.692;0.011467263620749124
380.028;0.011206764461476176
380.365;0.011376484518575961
380.701;0.011121304439035603
381.038;0.011070690573996032
381.374;0.011179481764717175
381.711;0.01101536341814425
382.047;0.010596513898513656
382.384;0.010376985750632891
382.72;0.009980728059547616
383.056;0.00956243668081551
383.393;0.009759900461480524
383.729;0.009888386344663522
384.066;0.010833250481740435
384.402;0.011660717695382756
384.738;0.011638426829621061
385.075;0.011378159244279542
385.411;0.011467494512912341
385.748;0.011719871767636697
386.084;0.011822037307748869
386.42;0.012737732295461563
386.757;0.012827358679115122
387.093;0.01269993589980963
387.429;0.01109059381177461
387.765;0.01066427658205788
388.102;0.011150675997802749
388.438;0.01159138694498201
388.774;0.012761812196728112
389.11;0.012806335977954638
389.447;0.012898764125895891
389.783;0.013314809154165986
390.119;0.01320278797297648
390.455;0.013733031825814089
390.791;0.013354117560178128
391.128;0.013802893067625275
391.464;0.014373180196840961
391.8;0.014140862304812634
392.136;0.014378278762437349
392.472;0.015336102858455379
392.808;0.015216069840405329
393.144;0.015576103520560455
393.48;0.015551158682706094
393.816;0.016009497504177482
394.152;0.01563864991986602
394.489;0.01589488355852912
394.825;0.015760994207860982
395.161;0.01550378056528857
395.497;0.015194337873062345
395.833;0.015523765084986797
396.169;0.015887719765555478
396.505;0.015018035950022343
396.841;0.014805171404513595
397.176;0.015255868740760258
397.512;0.015595547246573246
397.848;0.015393952102129441
398.184;0.01562614159448039
398.52;0.015360751278647458
398.856;0.01608637580729561
399.192;0.01628528364875703
399.528;0.015761134349101782
399.864;0.016112190505619215
400.2;0.016142059755171273
400.535;0.016692888007969742
400.871;0.01694241388083196
401.207;0.016768753582305024
401.543;0.016727005885430725
401.879;0.016533313722191766
402.214;0.016988699805595503
402.55;0.01647594376156126
402.886;0.015899076735957918
403.222;0.016208967880154686
403.557;0.01588189632886006
403.893;0.01666492740636538
404.229;0.01708649134820224
404.565;0.017165163534954626
404.9;0.016870487714651595
405.236;0.017047023029671555
405.572;0.017368451964347408
405.907;0.01717715864039085
406.243;0.017038548196452216
406.579;0.017741876405193088
406.914;0.018131648889918278
407.25;0.017953472558844556
407.585;0.017852025905421683
407.921;0.0183224065713269
408.257;0.018035476319526886
408.592;0.017800287653118762
408.928;0.017310500228187517
409.263;0.017380527063918922
409.599;0.018355569670301903
409.934;0.01795359830720116
410.27;0.01781413262293354
410.605;0.017812757193469107
410.941;0.018369354720267243
411.276;0.018344900149499608
