Wavelength;Intensity
174.456;0.0680965841228285
174.799;0.06820798066825795
175.142;0.06831390296136598
175.485;0.06841445020567136
175.828;0.06850972160469294
176.17;0.06859981636194952
176.513;0.06868483368095994
176.856;0.068764872765243
177.199;0.06884003281831752
177.542;0.06891041304370232
177.884;0.06897611264491622
178.227;0.06903723082547805
178.57;0.06909386678890662
178.913;0.06914611973872076
179.255;0.06919408887843925
179.598;0.06923787341158096
179.941;0.06927757254166468
180.284;0.06931328547220925
180.626;0.06934511140673344
180.969;0.06937314954875613
181.312;0.0693974991017961
181.654;0.06941825926937219
181.997;0.06943552925500321
182.34;0.06944940826220798
182.682;0.06945999549450531
183.025;0.06946739015541403
183.368;0.06947169144845296
183.71;0.06947299857714091
184.053;0.0694714107449967
184.395;0.06946702715553917
184.738;0.06945994701228711
185.081;0.06945026951875936
185.423;0.06943809387847472
185.766;0.06942351929495204
186.108;0.0694066449717101
186.451;0.06938757011226775
186.793;0.06936639392014377
187.136;0.06934321559885703
187.478;0.06931813435192632
187.821;0.06929124938287046
188.163;0.06926265989520829
188.506;0.06923246509245858
188.848;0.0692007641781402
189.191;0.06916765635577193
189.533;0.06913324082887262
189.876;0.06909761680096108
190.218;0.06906088347555614
190.561;0.06902314005617659
190.903;0.06898448574634128
191.245;0.068945019749569
191.588;0.06866907862125497
191.93;0.06835878122168564
192.272;0.06874135044238237
192.615;0.06888693969622955
192.957;0.06859210617649969
193.3;0.0685182235396111
193.642;0.06864389625123433
193.984;0.06876046884499634
194.327;0.06855052634403513
194.669;0.06842519971970693
195.011;0.06840563793462268
195.353;0.06838516899777056
195.696;0.06836466511000192
196.038;0.06833884427878649
196.38;0.06831630164935307
196.722;0.06828817126159643
197.065;0.06825818654064367
197.407;0.06822138080685179
197.749;0.06819731155357756
198.091;0.06817138977285868
198.434;0.06813850044100256
198.776;0.06810873471179925
199.118;0.06809927702211853
199.46;0.0680867011932651
199.802;0.06808399622114844
200.144;0.0680877609235951
200.487;0.0680892297546645
200.829;0.06809357784884751
201.171;0.06810905297671238
201.513;0.06813846967778163
201.855;0.06814613914757914
202.197;0.06814816226743825
202.539;0.06814681229288352
202.881;0.0681539129670665
203.223;0.06816366551253275
203.565;0.06817477426003589
203.907;0.06818642489872731
204.249;0.06818619631129247
204.591;0.06820177747312127
204.933;0.0681998686436038
205.275;0.06819379211769351
205.617;0.06818453571297939
205.959;0.06818386862144198
206.301;0.06817090956906378
206.643;0.06814067688642403
206.985;0.06810360025378101
207.327;0.06806277919458718
207.669;0.068004279657878
208.011;0.06794279751581529
208.353;0.06786740121266635
208.695;0.06778792056968402
209.037;0.06769252598865044
209.379;0.06760391894496094
209.721;0.06753010874545805
210.062;0.0674675090768442
210.404;0.06740066751398945
210.746;0.06733060370872596
211.088;0.0672734855052538
211.43;0.06721959938347127
211.772;0.06716064471857845
212.113;0.06709987589434586
212.455;0.06704510511837392
212.797;0.06699998927433815
213.139;0.06693915425883029
213.48;0.06688082415722245
213.822;0.06683639969415679
214.164;0.06680469766817243
214.506;0.06677789409234605
214.847;0.06676466437362406
215.189;0.06676670070973921
215.531;0.06677313678008574
215.872;0.06678407296625376
216.214;0.06679924573087753
216.556;0.06681753004162591
216.898;0.06682233117940965
217.239;0.06681852146416359
217.581;0.06681225714285481
217.922;0.06681442435554492
218.264;0.06680757663106661
218.606;0.06678819422863476
218.947;0.06676805324404357
219.289;0.0667488276059968
219.63;0.06673391747231473
219.972;0.0667127575949161
220.314;0.06669420099401752
220.655;0.0666756771147637
220.997;0.06666584946004807
221.338;0.06664853830625798
221.68;0.06663667933217576
222.021;0.06663056052269282
222.363;0.06662011909401071
222.704;0.06660578986835583
223.046;0.06659340496083903
223.387;0.06658446836974019
223.729;0.06656927709663149
224.07;0.06655136550409524
224.412;0.0665231364967385
224.753;0.06649788453870578
225.094;0.06646437784779469
225.436;0.06642821226671594
225.777;0.06640743527502131
226.119;0.06639142838295119
226.46;0.06638008768212629
226.801;0.06636788470193157
227.143;0.06636887151566825
227.484;0.06637179731988103
227.825;0.06638154565784078
228.167;0.06638636457460391
228.508;0.06639920332121407
228.849;0.06640801362182043
229.191;0.06641962051669621
229.532;0.06642847293474928
229.873;0.06643693542559388
230.215;0.0664442734817371
230.556;0.0664670369818044
230.897;0.06649951588164627
231.238;0.06652941884599399
231.58;0.06657862567869721
231.921;0.06663597728464588
232.262;0.0667017683836594
232.603;0.0667692112715778
232.944;0.066836033679037
233.286;0.06689080261293738
233.627;0.06695383222235454
233.968;0.0670160538476077
234.309;0.06707130978547879
234.65;0.06713112813469128
234.991;0.06717926190342127
235.332;0.06721750479163975
235.673;0.0672525917524692
236.015;0.06728643723187516
236.356;0.06730894142716723
236.697;0.06732432177678133
237.038;0.06734262564569829
237.379;0.06736302159494323
237.72;0.0673565301493502
238.061;0.06733972466054022
238.402;0.06733583768158144
238.743;0.06731318182888618
239.084;0.06728864201160877
239.425;0.06725657173798036
239.766;0.06722502743977377
240.107;0.06719771217235418
240.448;0.06716969339129732
240.789;0.06715577644298075
241.13;0.06713852688442877
241.471;0.06712333474131468
241.812;0.06711307987985199
242.153;0.06711207527954668
242.494;0.06713549003344595
242.834;0.06715327831190963
243.175;0.06717602744752468
243.516;0.06715311767655747
243.857;0.0671502092676721
244.198;0.06715081876163984
244.539;0.0671519377404997
244.88;0.0671668873961994
245.22;0.06718874766183927
245.561;0.06721423023748367
245.902;0.06724408748978508
246.243;0.0672775318985313
246.584;0.06730892565012667
246.924;0.06734521682476705
247.265;0.06736068883546577
247.606;0.06738618416333708
247.947;0.06740673356538772
248.287;0.06743412671529131
248.628;0.06746340637015925
248.969;0.0674915745416969
249.31;0.06751878408123635
249.65;0.06754506994713551
249.991;0.0675626561502652
250.332;0.06758401513855332
250.672;0.06766679383007529
251.013;0.06775053937084416
251.354;0.06782996034113578
251.694;0.06790865906847739
252.035;0.06799327387265898
252.375;0.06807665763848786
252.716;0.06815687767669415
253.057;0.06823841369567273
253.397;0.06831682738226355
253.738;0.06839715261527828
254.078;0.06847091013337762
254.419;0.06857217027801109
254.759;0.06866517173891484
255.1;0.06875250001952313
255.44;0.06883083384031927
255.781;0.06889473925287522
256.121;0.06896821044497739
256.462;0.06903080838678775
256.802;0.0690872632259864
257.143;0.06914865137410424
257.483;0.06921124198660959
257.824;0.06927741742161536
258.164;0.06933193018313447
258.505;0.06939595643748708
258.845;0.06946323316048755
259.185;0.0695330732818172
259.526;0.0696103429065941
259.866;0.06968118083652955
260.207;0.06974695870105312
260.547;0.0698101880389482
260.887;0.06987936453737807
261.228;0.06994744819687942
261.568;0.07000874026755353
261.908;0.07007455509577426
262.249;0.07011812753956079
262.589;0.07015717727922124
262.929;0.07019876079060512
263.269;0.07022573994745512
263.61;0.07025000269659992
263.95;0.07027144078185102
264.29;0.07029985809579728
264.63;0.0703172979286274
264.971;0.07032570049076692
265.311;0.07033516367931139
265.651;0.07032939644711668
265.991;0.07031709237588375
266.331;0.07029112369973577
266.672;0.07025883971604058
267.012;0.07021857343543954
267.352;0.07018008863284524
267.692;0.07012237405290246
268.032;0.07005167615367017
268.372;0.0699800094852063
268.713;0.06990197501698119
269.053;0.06981379568088072
269.393;0.06973652973196781
269.733;0.06966318647732647
270.073;0.06958034676843451
270.413;0.06949901547684273
270.753;0.0694264172031714
271.093;0.0693509330132158
271.433;0.06927060029817445
271.773;0.06919087850925366
272.113;0.0691072037261303
272.453;0.06901664294410682
272.793;0.06893160499042707
273.133;0.06883437883392973
273.473;0.06873190116254015
273.813;0.06862931166929023
274.153;0.0685249543103604
274.493;0.06841849861553027
274.833;0.06830251497081555
275.173;0.06819174425486942
275.513;0.06807787084138522
275.852;0.06796121310921348
276.192;0.06784115062574674
276.532;0.06771682729292124
276.872;0.06759263083875588
277.212;0.06747482302668265
277.552;0.06738824305271805
277.892;0.0672991702371022
278.231;0.0672132687596601
278.571;0.06712290989931263
278.911;0.06703783862749194
279.251;0.0669520828491925
279.591;0.0668570876128529
279.93;0.06676015360109903
280.27;0.06666930838788045
280.61;0.06657933404359767
280.95;0.06649388785154542
281.289;0.06643788935545297
281.629;0.06638781911509323
281.969;0.06636119034943827
282.308;0.06633417997396236
282.648;0.06631375290218929
282.988;0.06629885200532888
283.328;0.06629955639606802
283.667;0.06629893084524263
284.007;0.0663130887739137
284.346;0.06634034345635414
284.686;0.06634109024189294
285.026;0.06634618436712383
285.365;0.0663491577328467
285.705;0.06635701256543791
286.044;0.06636295505098737
286.384;0.06637005043161093
286.724;0.06639199564356352
287.063;0.06641006280379624
287.403;0.06642595440738897
287.742;0.06645742288492673
288.082;0.06649617574641128
288.421;0.06651262474201323
288.761;0.06654104535640129
289.1;0.06656364167468812
289.44;0.06659153490249513
289.779;0.066625755078003
290.119;0.06665987227427415
290.458;0.06670174011144123
290.797;0.06675731561144709
291.137;0.06681055054715883
291.476;0.06685966755749788
291.816;0.06690895461007917
292.155;0.06696589122281793
292.494;0.06701490406600363
292.834;0.06706358727270363
293.173;0.06711600425427748
293.512;0.0671682454353798
293.852;0.06721953742394869
294.191;0.06729421728968657
294.53;0.0673829038090137
294.87;0.0674606205256358
295.209;0.06752368786772966
295.548;0.06759039645971815
295.888;0.0676479618256058
296.227;0.06772288393082576
296.566;0.0677943653465895
296.905;0.06786938578025778
297.245;0.0679448900916629
297.584;0.06801534886995912
297.923;0.06808751108814894
298.262;0.06815551111975002
298.601;0.06821470616914181
298.941;0.06825747806170714
299.28;0.06829575314549652
299.619;0.06834027835473253
299.958;0.06837724596974751
300.297;0.0683937521368856
300.636;0.0684004698606095
300.975;0.06841418709932269
301.315;0.06841425929064873
301.654;0.06841668312905534
301.993;0.06842466982694462
302.332;0.06843839496415746
302.671;0.06843899781392355
303.01;0.06843361529329099
303.349;0.06842874603700297
303.688;0.06841216297911017
304.027;0.06839421683246735
304.366;0.06837439655372253
304.705;0.06834509240756728
305.044;0.06830665978627372
305.383;0.06826164404652432
305.722;0.06822342599810785
306.061;0.06819927029658623
306.4;0.06817224358211943
306.739;0.06814089878091834
307.078;0.06811550767672558
307.417;0.06810597336753234
307.755;0.06811133318818971
308.094;0.06810823816674651
308.433;0.0680934186788143
308.772;0.06807648529600929
309.111;0.06804094112142751
309.45;0.06800241403294437
309.789;0.06796661285742124
310.127;0.0679356888213594
310.466;0.06788569864051762
310.805;0.06783833268460852
311.144;0.06777277356370504
311.483;0.06771627669512471
311.821;0.0676498702605309
312.16;0.0675771536215771
312.499;0.0674994429907545
312.838;0.06741551968616222
313.176;0.06732770723942509
313.515;0.06724897017394142
313.854;0.06717027820040222
314.192;0.06709077233771128
314.531;0.06702332549820215
314.87;0.06693105134056132
315.208;0.06683438963384043
315.547;0.06675214758227957
315.886;0.06666865454344892
316.224;0.06660423393715101
316.563;0.06653487723495001
316.902;0.06647721930998071
317.24;0.06641753258281569
317.579;0.06636714863824575
317.917;0.06632686136372577
318.256;0.06629334573892286
318.594;0.06624359594938076
318.933;0.06619968780661886
319.272;0.06615303354907032
319.61;0.06611246739908921
319.949;0.06606898632917811
320.287;0.06602790329393678
320.626;0.06596831724271682
320.964;0.06591851122571316
321.303;0.06589282132656302
321.641;0.06584174567360049
321.979;0.0658042758147363
322.318;0.06575547668211013
322.656;0.06570747580411564
322.995;0.06566904221070663
323.333;0.06563556863307579
323.671;0.0656169526919356
324.01;0.06559969239216325
324.348;0.06557911661624478
324.687;0.06556161806820292
325.025;0.06555039621911253
325.363;0.06555507376896953
325.702;0.06556790833823307
326.04;0.06558643291224935
326.378;0.06562911208473234
326.717;0.06567876184997104
327.055;0.06573400830752342
327.393;0.06578512378375788
327.731;0.0658513873870137
328.07;0.06590982438046779
328.408;0.0659444021679591
328.746;0.06598356622876184
329.084;0.06602575526990685
329.422;0.06608158770777456
329.761;0.06612230111338692
330.099;0.06614562475381122
330.437;0.06616301940939155
330.775;0.06616742009430118
331.113;0.06616827817276819
331.451;0.06617196646342136
331.79;0.06616835140914544
332.128;0.06615437320119394
332.466;0.06613351414286797
332.804;0.06611270738460974
333.142;0.0660863889988219
333.48;0.06604796353183684
333.818;0.06600600928633996
334.156;0.06597524267581605
334.494;0.0659487622855535
334.832;0.06591481305226397
335.17;0.06589136204431277
335.508;0.06586274077190998
335.846;0.06583684750897616
336.184;0.0658074873409101
336.522;0.06577982936519111
336.86;0.06576409863133066
337.198;0.06574495128258191
337.536;0.06573683623095583
337.874;0.06573277351923752
338.212;0.06571686313296084
338.55;0.06570632869506522
338.888;0.06570436361043965
339.226;0.06570156864731952
339.564;0.065694842460928
339.901;0.06568352561142841
340.239;0.06566938045612576
340.577;0.06565433326732249
340.915;0.06563635668911937
341.253;0.06560167722335832
341.591;0.06556238605094444
341.928;0.06552179046142798
342.266;0.06546707957651052
342.604;0.0654176958507777
342.942;0.06539027794135074
343.279;0.06536014839929345
343.617;0.06532158641474346
343.955;0.06527666218345568
344.293;0.06523286496450784
344.63;0.0651731449389635
344.968;0.06511048791819894
345.306;0.0650579840969394
345.643;0.0650129695531394
345.981;0.0649669658860524
346.319;0.06492630118649945
346.656;0.06487791589528949
346.994;0.06481739984758848
347.332;0.0647549510759732
347.669;0.0646960396201487
348.007;0.06464116805749749
348.344;0.06459900352986549
348.682;0.0645700930712994
349.02;0.06454053863537713
349.357;0.06450439845841625
349.695;0.06446946244086009
350.032;0.06442425626819724
350.37;0.06438573060787521
350.707;0.06435960646441603
351.045;0.06433473422529525
351.382;0.06431273459217479
351.72;0.06428029309748855
352.057;0.06424874406594805
352.395;0.06422579145054207
352.732;0.06419547986850652
353.07;0.06416661938808829
353.407;0.06413164724096386
353.744;0.0641127237360655
354.082;0.06410933283758825
354.419;0.06412125304316604
354.757;0.0641341736736739
355.094;0.06414045431288137
355.431;0.06415237990934851
355.769;0.0641626694238738
356.106;0.06420119180450128
356.443;0.06425983747363097
356.781;0.06431983048531995
357.118;0.0643811526286415
357.455;0.06444390178077848
357.793;0.064510004249565
358.13;0.06458768336031026
358.467;0.06467055295852454
358.804;0.06476919807049704
359.142;0.06486774065331544
359.479;0.06495931004247892
359.816;0.06504014269403673
360.153;0.06511044075689926
360.49;0.06518928515583548
360.828;0.06526080151645419
361.165;0.06533013002952467
361.502;0.06539239541613746
361.839;0.06544739515688823
362.176;0.06551071450628773
362.513;0.06557382928654147
362.85;0.06562661759064248
363.187;0.06566113319798052
363.525;0.06569162995095912
363.862;0.0657197031281985
364.199;0.06574927798381834
364.536;0.0657885807192612
364.873;0.06582132832219352
365.21;0.06583513618329735
365.547;0.06584064923617908
365.884;0.06584530145790937
366.221;0.06585111145032177
366.558;0.06586003748184974
366.895;0.06586663293596089
367.232;0.06587952747473415
367.569;0.06588708617151719
367.906;0.06589241038227361
368.243;0.06589991265343656
368.58;0.06591196932823473
368.916;0.06591934508162166
369.253;0.06592081494699907
369.59;0.065904797466578
369.927;0.06589359910625317
370.264;0.0658835540033158
370.601;0.06586764326172367
370.938;0.06584885053050171
371.275;0.0658300941901848
371.611;0.0657982806162928
371.948;0.06577346529234882
372.285;0.06575563332442635
372.622;0.06572823324700514
372.958;0.06570188698324643
373.295;0.0656700667367669
373.632;0.06563146743921656
373.969;0.0656016599123505
374.305;0.06556596688380938
374.642;0.06551959419926096
374.979;0.06547773469958804
375.316;0.065438582773473
375.652;0.06539693953957534
375.989;0.06536351530929661
376.326;0.06532774760310833
376.662;0.06529914153800938
376.999;0.06526990724765878
377.336;0.06522816018088025
377.672;0.06518826790590615
378.009;0.06515533753555985
378.345;0.06511312716868745
378.682;0.06506833206824729
379.019;0.06501085057986769
379.355;0.06495239828291342
379.692;0.06490472549270238
380.028;0.06485524708856194
380.365;0.06481425869082508
380.701;0.06479146901450644
381.038;0.06478379223358857
381.374;0.06478212640691468
381.711;0.06478817645541793
382.047;0.06479056641575365
382.384;0.06479447672765168
382.72;0.06480232892228446
383.056;0.06482291811222332
383.393;0.0648502903842153
383.729;0.06487818484069423
384.066;0.06487970205163271
384.402;0.0648756030543227
384.738;0.06488140907562918
385.075;0.06489221308637423
385.411;0.06491833131587649
385.748;0.06494867417922327
386.084;0.06498575850506166
386.42;0.06503016133360566
386.757;0.06507818658530327
387.093;0.06513205533565954
387.429;0.0651780441874724
387.765;0.06521592867067884
388.102;0.06524543750415554
388.438;0.06526774325986286
388.774;0.06529786671735263
389.11;0.06534257886090158
389.447;0.0653815175969129
389.783;0.06542281724072767
390.119;0.06544844795664517
390.455;0.06547766102865157
390.791;0.06550138263592453
391.128;0.06555121949283021
391.464;0.06560845945112666
391.8;0.06565375131059731
392.136;0.06569014397766904
392.472;0.06571995043538549
392.808;0.06575299429860955
393.144;0.0657736763258701
393.48;0.06578742761149056
393.816;0.06581040544453545
394.152;0.06583209042843474
394.489;0.06585718574572831
394.825;0.06587687087933256
395.161;0.06588471921058744
395.497;0.0659107621290349
395.833;0.06593831367033315
396.169;0.0659434695420945
396.505;0.06595581090306721
396.841;0.0659632957296218
397.176;0.0659810620512666
397.512;0.06599584921037231
397.848;0.06601155946096277
398.184;0.0660250150653916
398.52;0.06603823155987401
398.856;0.0660630152510352
399.192;0.0660829412313934
399.528;0.0660904646517102
399.864;0.06609856786068725
400.2;0.06611801566249934
400.535;0.06614488092571905
400.871;0.06616325795093181
401.207;0.06618414256082418
401.543;0.06620031403550045
401.879;0.06619948144483032
402.214;0.06619434541839747
402.55;0.06618070571099241
402.886;0.0661668047943017
403.222;0.06617270886143045
403.557;0.06721097983842049
403.893;0.06814978153275837
404.229;0.06900573943754686
404.565;0.06980024862131223
404.9;0.0705152853303587
405.236;0.07113940460159585
405.572;0.07168661880899448
405.907;0.07217067356480752
406.243;0.07259378760576622
406.579;0.07293062257585695
406.914;0.07320085332321363
407.25;0.07342163822727098
407.585;0.07357956594043022
407.921;0.07366421977776276
408.257;0.07369474813824303
408.592;0.07368364973845208
408.928;0.07361405870985584
409.263;0.07347183745664788
409.599;0.07327445234529491
409.934;0.07304251526664725
410.27;0.07274875225439356
410.605;0.07238528779894929
410.941;0.07197926593328771
411.276;0.07153734122088046
411.612;0.07104749249964842
411.947;0.07051017429408392
412.283;0.06993447185665541
412.618;0.06933803372494442
412.953;0.06870837194561881
413.289;0.06801464731065532
413.624;0.06728261770519195
413.96;0.06653162991091777
414.295;0.06574997141526905
414.63;0.06490966781593985
414.966;0.06402733935608731
415.301;0.06312251380030291
415.636;0.062186530684305616
415.972;0.06120744810156525
416.307;0.060200155589197044
416.642;0.05917733569625521
416.977;0.05812637258896487
417.313;0.057036963332669534
417.648;0.05595203241894822
417.983;0.0548622135405213
418.318;0.05375467998291268
